x,y,theta,velocity
16.220099,99.271579,-2.817664,
16.024310,99.239349,3.141593,
15.826827,99.212520,-2.926898,
15.629867,99.178005,-2.982400,
15.434990,99.133817,-2.898652,
15.241708,99.082446,-2.881320,
15.048920,99.029260,-2.853210,
14.858794,98.967309,-2.814087,
14.670405,98.900235,-2.774404,
14.484479,98.826559,-2.756138,
14.300018,98.749292,-2.739983,
14.114181,98.675622,-2.723079,
13.934854,98.587279,-2.645247,
13.759345,98.491636,-2.591790,
13.587898,98.388677,-2.630696,
13.413159,98.291392,-2.561036,
13.243091,98.186230,-2.590638,
13.078663,98.072589,-2.509550,
12.915268,97.957309,-2.548507,
12.754987,97.838184,-2.413081,
12.601762,97.709693,-2.463492,
12.444403,97.586274,-2.466899,
12.300786,97.447217,-2.356194,
12.159365,97.305795,-2.356194,
12.017944,97.164374,-2.356194,
11.882438,97.017667,-2.190188,
11.759582,96.859947,-2.269397,
11.632639,96.705426,-2.231574,
11.514325,96.544245,-2.204533,
11.402572,96.378390,-2.159789,
11.298788,96.207441,-2.105770,
11.196407,96.035865,-2.025356,
11.106546,95.857201,-2.048169,
11.018557,95.677658,-1.986651,
10.952980,95.488770,-1.888113,
10.890170,95.298889,-1.891785,
10.834838,95.106881,-1.802074,
10.788092,94.912459,-1.766594,
10.746786,94.716862,-1.710749,
10.722700,94.518758,-1.745058,
10.708769,94.319595,-1.570796,
10.708769,94.119595,-1.570796,
10.708769,93.919595,-1.570796,
10.708769,93.719595,-1.570796,
10.719049,93.520013,-1.447320,
10.740999,93.321390,-1.570796,
10.759678,93.123055,-1.355682,
10.791389,92.925650,-1.435453,
10.812655,92.726849,-1.409448,
10.852741,92.531025,-1.392412,
10.893681,92.335314,-1.333952,
10.933424,92.139416,-1.319465,
10.979330,91.944773,-1.353510,
11.023467,91.749711,-1.341127,
11.072982,91.555963,-1.307185,
11.125690,91.363034,-1.295131,
11.175937,91.169479,-1.337515,
11.228067,90.976435,-1.285993,
11.280524,90.783478,-1.324508,
11.330294,90.589776,-1.312073,
11.383022,90.396856,-1.310476,
11.433628,90.203367,-1.331526,
11.482252,90.009381,-1.335141,
11.530538,89.815299,-1.324053,
11.579166,89.621313,-1.306003,
11.628672,89.427542,-1.323736,
11.677633,89.233631,-1.331981,
11.726700,89.039751,-1.325862,
11.774732,88.845605,-1.329808,
11.822530,88.651415,-1.339622,
11.869891,88.457105,-1.333544,
11.918193,88.263030,-1.344159,
11.962517,88.068004,-1.350103,
12.008013,87.873250,-1.339297,
12.056053,87.679113,-1.330407,
12.105115,87.485230,-1.329869,
12.153823,87.291257,-1.316126,
12.202695,87.097320,-1.324508,
12.252202,86.903560,-1.329869,
12.300901,86.709580,-1.323736,
12.349540,86.515598,-1.307766,
12.397532,86.321444,-1.331586,
12.444898,86.127137,-1.339622,
12.492969,85.933009,-1.329149,
12.541923,85.739101,-1.307782,
12.590279,85.545040,-1.319362,
12.639246,85.351128,-1.327538,
12.689026,85.157436,-1.327385,
12.737633,84.963433,-1.320443,
12.785510,84.769252,-1.334785,
12.833862,84.575190,-1.332166,
12.881832,84.381030,-1.323108,
12.929381,84.186776,-1.325536,
12.977930,83.992758,-1.325239,
13.027363,83.798978,-1.329869,
13.076129,83.605016,-1.331468,
13.125406,83.411200,-1.324157,
13.174175,83.217237,-1.325050,
13.222588,83.023190,-1.337216,
13.270326,82.828977,-1.333159,
13.317878,82.634714,-1.318057,
13.365502,82.440475,-1.318692,
13.414483,82.246567,-1.327054,
13.464271,82.052877,-1.327783,
13.512874,81.858873,-1.320926,
13.555236,81.663467,-1.348286,
13.603788,81.469482,-1.330807,
13.651252,81.275196,-1.329238,
13.697970,81.080731,-1.339274,
13.746520,80.886723,-1.327759,
13.795227,80.692748,-1.333603,
13.843875,80.498763,-1.324508,
13.892760,80.304830,-1.308147,
13.942005,80.110999,-1.329869,
13.994279,79.917994,-1.283189,
14.047445,79.725232,-1.327494,
14.095604,79.531118,-1.320655,
14.142592,79.336723,-1.325879,
14.189965,79.142416,-1.330555,
14.237664,78.948234,-1.354205,
14.276780,78.752103,-1.379045,
14.319251,78.556689,-1.388892,
14.356879,78.360266,-1.370229,
14.394692,78.163918,-1.412084,
14.415553,77.965163,-1.522621,
14.430305,77.765747,-1.462999,
14.453192,77.567070,-1.442686,
14.468417,77.368054,-1.620470,
14.448031,77.169217,-1.695867,
14.423518,76.970726,-1.688997,
14.400100,76.772151,-1.743380,
14.360550,76.576163,-1.793332,
14.306078,76.383775,-1.875748,
14.238913,76.195472,-1.959556,
14.161876,76.010908,-1.971113,
14.073891,75.831379,-2.063759,
13.974484,75.657887,-2.108444,
13.863153,75.491779,-2.187921,
13.743168,75.331837,-2.235216,
13.616698,75.176932,-2.298700,
13.478447,75.032517,-2.356194,
13.337026,74.891096,-2.356194,
13.195604,74.749675,-2.356194,
13.054183,74.608253,-2.356194,
12.912762,74.466832,-2.356194,
12.771340,74.325411,-2.356194,
12.629919,74.183989,-2.356194,
12.488497,74.042568,-2.356194,
12.347076,73.901147,-2.356194,
12.205655,73.759725,-2.356194,
12.064233,73.618304,-2.356194,
11.922812,73.476882,-2.356194,
11.781573,73.335281,-2.339018,
11.655127,73.180477,-2.238206,
11.526494,73.027368,-2.298996,
11.390839,72.880449,-2.356194,
11.262850,72.727299,-2.225864,
11.134246,72.574176,-2.286780,
11.002144,72.424027,-2.280014,
10.883316,72.263251,-2.218733,
10.764836,72.102161,-2.222172,
10.637843,71.947703,-2.274962,
10.513737,71.790971,-2.178830,
10.392369,71.632041,-2.216593,
10.273575,71.471175,-2.220825,
10.154125,71.310794,-2.180922,
10.034309,71.150721,-2.178912,
9.919815,70.986738,-2.188468,
9.803886,70.823766,-2.200993,
9.683065,70.664404,-2.205691,
9.564394,70.503453,-2.216678,
9.449340,70.339898,-2.178473,
9.334263,70.176324,-2.185836,
9.220950,70.011539,-2.157866,
9.104160,69.849188,-2.198428,
8.992022,69.683599,-2.161881,
8.880248,69.517748,-2.165664,
8.768533,69.351857,-2.162542,
8.657422,69.185561,-2.156312,
8.546896,69.018876,-2.156312,
8.436893,68.851845,-2.152979,
8.332776,68.681117,-2.100457,
8.226003,68.512030,-2.133673,
8.119466,68.342774,-2.097055,
8.018931,68.169889,-2.131758,
7.912969,68.000284,-2.103624,
7.811881,67.827735,-2.126780,
7.707052,67.657436,-2.074688,
7.617066,67.478884,-2.047309,
7.521186,67.303412,-2.092240,
7.420589,67.130560,-2.089426,
7.324153,66.955385,-2.045198,
7.234994,66.776420,-2.046027,
7.145764,66.597460,-2.012599,
7.057443,66.418051,-2.017248,
6.967061,66.239669,-2.058856,
6.875532,66.061877,-2.059263,
6.777027,65.887868,-2.103230,
6.676969,65.714702,-2.089216,
6.582471,65.538526,-2.010040,
6.491947,65.360233,-2.054743,
6.402361,65.181444,-2.023581,
6.313049,65.002511,-2.044427,
6.224350,64.823269,-2.019958,
6.136153,64.643772,-2.033211,
6.047416,64.464537,-2.033953,
5.957911,64.285683,-2.037005,
5.863441,64.109437,-2.106031,
5.762437,63.936819,-2.088092,
5.664722,63.762321,-2.057600,
5.574039,63.584073,-2.039164,
5.483925,63.405526,-2.041226,
5.394141,63.226815,-2.030114,
5.304807,63.047883,-2.038650,
5.210940,62.871314,-2.096859,
5.114869,62.695940,-2.050726,
5.022236,62.518702,-2.065925,
4.926961,62.342857,-2.075472,
4.834753,62.165423,-2.057314,
4.745271,61.986592,-2.020578,
4.655871,61.807712,-2.059523,
4.559878,61.632298,-2.103238,
4.462574,61.457601,-2.057508,
4.369268,61.280728,-2.076217,
4.273105,61.105374,-2.088371,
4.180245,60.928333,-2.067209,
4.089468,60.750169,-2.018574,
4.000516,60.571078,-2.045168,
3.910735,60.392396,-2.061447,
3.812893,60.217981,-2.089760,
3.721000,60.040350,-2.038132,
3.626777,59.863965,-2.065835,
3.531121,59.688340,-2.044462,
3.440899,59.509869,-2.028317,
3.351046,59.331195,-2.043239,
3.259712,59.153282,-2.076474,
3.160579,58.979598,-2.087325,
3.067509,58.802595,-2.047422,
2.973344,58.626161,-2.073194,
2.877292,58.450738,-2.059240,
2.787306,58.272136,-2.033578,
2.698573,58.092898,-2.024044,
2.608732,57.914225,-2.050726,
2.510881,57.739812,-2.071018,
2.418099,57.562641,-2.065305,
2.322824,57.386793,-2.070012,
2.228055,57.210686,-2.048586,
2.138586,57.031832,-2.049428,
2.047979,56.853550,-2.051392,
1.958639,56.674635,-2.022446,
1.864924,56.498001,-2.103344,
1.764863,56.324845,-2.080366,
1.668799,56.149435,-2.063681,
1.574125,55.973298,-2.069660,
1.484119,55.794782,-2.054674,
1.394990,55.615778,-2.013372,
1.306542,55.436434,-2.048635,
1.212176,55.260127,-2.086549,
1.114740,55.085478,-2.079183,
1.018515,54.910154,-2.065547,
0.923182,54.734382,-2.067108,
0.834007,54.555407,-2.051382,
0.743731,54.376956,-2.027746,
0.654158,54.198145,-2.029509,
0.563419,54.019927,-2.058587,
0.463897,53.846494,-2.104677,
0.364047,53.673213,-2.085660,
0.269680,53.496897,-2.047213,
0.180973,53.317652,-2.032864,
0.092626,53.138223,-2.027996,
0.004247,52.958809,-2.027691,
-0.084630,52.779643,-2.031174,
-0.176032,52.601764,-2.094699,
-0.277201,52.429243,-2.106447,
-0.377487,52.256210,-2.087639,
-0.468504,52.078136,-2.030278,
-0.558098,51.899332,-2.029754,
-0.648364,51.720872,-2.049145,
-0.737891,51.542052,-2.017911,
-0.827024,51.363040,-2.045233,
-0.922641,51.187435,-2.093474,
-1.023137,51.014525,-2.087805,
-1.119465,50.839295,-2.041922,
-1.208878,50.660478,-2.051072,
-1.298812,50.481875,-2.017217,
-1.388097,50.302944,-2.023378,
-1.478329,50.124488,-2.057207,
-1.569235,49.946372,-2.054344,
-1.658621,49.767479,-2.025086,
-1.749004,49.589090,-2.059542,
-1.847778,49.415216,-2.101332,
-1.947178,49.241676,-2.082312,
-2.042201,49.065722,-2.056526,
-2.131094,48.886591,-2.037149,
-2.219431,48.707162,-2.023050,
-2.307756,48.527724,-2.032975,
-2.397058,48.348768,-2.036221,
-2.487005,48.170135,-2.039824,
-2.577162,47.991610,-2.031998,
-2.666861,47.812857,-2.030028,
-2.760206,47.636014,-2.091264,
-2.861159,47.463369,-2.093592,
-2.960278,47.289661,-2.084551,
-3.050777,47.111329,-2.017151,
-3.138961,46.931834,-2.039622,
-3.227898,46.752713,-2.041382,
-3.315727,46.573055,-2.015190,
-3.405405,46.394314,-2.057505,
-3.496854,46.216480,-2.061289,
-3.586915,46.037941,-2.024132,
-3.680763,45.861369,-2.100256,
-3.779969,45.687726,-2.081693,
-3.876251,45.512436,-2.064036,
-3.971520,45.336626,-2.074450,
-4.061037,45.157861,-2.047706,
-4.149670,44.978595,-2.015409,
-4.237643,44.798996,-2.037272,
-4.326518,44.619835,-2.037635,
-4.415980,44.440963,-2.032740,
-4.505804,44.262270,-2.034765,
-4.602919,44.087470,-2.106031,
-4.703358,43.914523,-2.088092,
-4.799863,43.739365,-2.054490,
-4.889793,43.560727,-2.036595,
-4.979742,43.382096,-2.034859,
-5.069125,43.203182,-2.034682,
-5.157836,43.023937,-2.034562,
-5.245841,42.844347,-2.018445,
-5.334580,42.665124,-2.044431,
-5.429443,42.489100,-2.092851,
-5.528442,42.315329,-2.077535,
-5.624593,42.139960,-2.068226,
-5.718533,41.963444,-2.011698,
-5.808464,41.784844,-2.055001,
-5.898627,41.606355,-2.023769,
-5.988876,41.427915,-2.062625,
-6.079426,41.249637,-2.015199,
-6.168480,41.070609,-2.058896,
-6.252887,40.889348,-1.986155,
-6.335434,40.707186,-1.984700,
-6.415186,40.523801,-1.960271,
-6.499784,40.342602,-2.032856,
-6.588450,40.163331,-2.026119,
-6.663208,39.977997,-1.959239,
-6.742186,39.794274,-1.970775,
-6.813814,39.607656,-1.905458,
-6.877313,39.418026,-1.841627,
-6.929368,39.224924,-1.846969,
-6.978754,39.031186,-1.739443,
-7.009794,38.834051,-1.719668,
-7.017731,38.634460,-1.570796,
-7.017731,38.434460,-1.570796,
-7.017102,38.234465,-1.555639,
-6.993473,38.036406,-1.414668,
-6.970321,37.838139,-1.355437,
-6.921357,37.644250,-1.309813,
-6.863870,37.452734,-1.254049,
-6.801636,37.262663,-1.252583,
-6.738506,37.072889,-1.252836,
-6.673297,36.883876,-1.191196,
-6.597684,36.698839,-1.136631,
-6.510676,36.518819,-1.134337,
-6.430214,36.335746,-1.130939,
-6.341472,36.156528,-1.106336,
-6.251733,35.977791,-1.107460,
-6.162763,35.798670,-1.110650,
-6.073177,35.619867,-1.090867,
-5.975928,35.445116,-1.064786,
-5.883716,35.267675,-1.104267,
-5.793775,35.089040,-1.108433,
-5.704026,34.910311,-1.110195,
-5.613744,34.731858,-1.092653,
-5.521473,34.554472,-1.060459,
-5.422108,34.380908,-1.038956,
-5.321823,34.207893,-1.071130,
-5.230478,34.030005,-1.097556,
-5.141125,33.851090,-1.099430,
-5.053125,33.671517,-1.130195,
-4.963514,33.492778,-1.137431,
-4.870336,33.315913,-1.055601,
-4.771643,33.141965,-1.040308,
-4.672012,32.968575,-1.083303,
-4.580533,32.790762,-1.081530,
-4.489767,32.612583,-1.117461,
-4.400104,32.433842,-1.119177,
-4.309337,32.255661,-1.130606,
-4.216189,32.078764,-1.053954,
-4.115458,31.905986,-1.035146,
-4.016424,31.732281,-1.084084,
-3.926238,31.553790,-1.098001,
-3.837182,31.374727,-1.125370,
-3.745005,31.197359,-1.039171,
-3.642305,31.025751,-1.040973,
-3.545053,30.851019,-1.089489,
-3.455459,30.672231,-1.105501,
-3.367304,30.492713,-1.119268,
-3.276152,30.314717,-1.057041,
-3.176744,30.141175,-1.045945,
-3.075966,29.968430,-1.053155,
-2.983407,29.791168,-1.107616,
-2.893484,29.612524,-1.103538,
-2.803503,29.433909,-1.105298,
-2.713447,29.255332,-1.099799,
-2.621094,29.077968,-1.064851,
-2.525236,28.902438,-1.071285,
-2.433488,28.724755,-1.115317,
-2.350110,28.542984,-1.143524,
-2.267890,28.360691,-1.119151,
-2.181954,28.180180,-1.126350,
-2.101582,27.997081,-1.181716,
-2.029256,27.810663,-1.223241,
-1.965405,27.621140,-1.269798,
-1.908088,27.429544,-1.301364,
-1.861718,27.235086,-1.396017,
-1.829925,27.037643,-1.420790,
-1.799930,26.839909,-1.429276,
-1.775191,26.641485,-1.469859,
-1.764241,26.441903,-1.570796,
-1.764241,26.241903,-1.570796,
-1.768824,26.041992,-1.632304,
-1.784021,25.842602,-1.669195,
-1.808727,25.644184,-1.751242,
-1.840123,25.446694,-1.709309,
-1.873516,25.249540,-1.775019,
-1.917673,25.054503,-1.809612,
-1.966218,24.860494,-1.851729,
-2.021913,24.668405,-1.856839,
-2.081138,24.477384,-1.882374,
-2.146465,24.288368,-1.912237,
-2.216781,24.101164,-1.961374,
-2.291901,23.915824,-1.933055,
-2.369143,23.731422,-2.014182,
-2.460636,23.553661,-2.069549,
-2.562879,23.381786,-2.119474,
-2.667616,23.211407,-2.139344,
-2.779282,23.045549,-2.185952,
-2.907049,22.891864,-2.316835,
-3.045504,22.747591,-2.356194,
-3.191048,22.610490,-2.403108,
-3.347312,22.485902,-2.523156,
-3.511989,22.372427,-2.559531,
-3.680079,22.264083,-2.587933,
-3.852883,22.163445,-2.597653,
-4.025079,22.061751,-2.644426,
-4.203021,21.970590,-2.695787,
-4.387448,21.893365,-2.767776,
-4.572608,21.817783,-2.757983,
-4.759823,21.747547,-2.808348,
-4.949844,21.685201,-2.840654,
-5.141215,21.627098,-2.852798,
-5.333607,21.572588,-2.894434,
-5.529527,21.532728,-2.982409,
-5.727577,21.505228,-3.027186,
-5.927417,21.500166,-3.139356,
-6.127416,21.499757,-3.139978,
-6.327416,21.499558,3.139411,
-6.527415,21.500079,3.138096,
-6.725956,21.520325,2.975229,
-6.921537,21.561895,2.878744,
-7.114346,21.614995,2.851036,
-7.304277,21.677386,2.793178,
-7.487030,21.758384,2.690176,
-7.665835,21.847973,2.673531,
-7.843423,21.939941,2.637736,
-8.016620,22.039909,2.594947,
-8.185218,22.147476,2.566459,
-8.352751,22.256709,2.551030,
-8.517927,22.369464,2.532561,
-8.676636,22.491129,2.481130,
-8.837341,22.610114,2.495091,
-8.998119,22.729030,2.532918,
-9.155954,22.851740,2.448623,
-9.312165,22.976591,2.489562,
-9.468888,23.100801,2.451350,
-9.620786,23.230887,2.432375,
-9.778975,23.353172,2.464691,
-9.931205,23.482879,2.427820,
-10.088628,23.605997,2.445181,
-10.239070,23.737767,2.417990,
-10.388944,23.870184,2.432375,
-10.547122,23.992482,2.464691,
-10.698498,24.123157,2.409405,
-10.852451,24.250510,2.497532,
-11.006834,24.377578,2.431370,
-11.157022,24.509636,2.429320,
-11.314790,24.632292,2.438963,
-11.465401,24.763872,2.416034,
-11.620052,24.890468,2.502589,
-11.774897,25.016964,2.434014,
-11.924995,25.149125,2.424475,
-12.082648,25.271974,2.442406,
-12.233516,25.403256,2.412651,
-12.387635,25.530497,2.507090,
-12.543176,25.656123,2.435519,
-12.693058,25.788524,2.418366,
-12.850858,25.911233,2.456228,
-13.002791,26.041262,2.413812,
-13.157649,26.167709,2.493042,
-13.313638,26.292827,2.436802,
-13.463266,26.425434,2.458833,
-13.620747,26.548683,2.448876,
-13.772951,26.678405,2.435437,
-13.930383,26.801607,2.463370,
-14.083272,26.930501,2.407060,
-14.234653,27.061043,2.521994,
-14.391820,27.184601,2.435270,
-14.542922,27.315610,2.438177,
-14.700442,27.438804,2.460728,
-14.854087,27.566811,2.419316,
-15.010857,27.690737,2.446117,
-15.162907,27.820647,2.425045,
-15.314055,27.951529,2.488649,
-15.472708,28.073196,2.448217,
-15.623651,28.204364,2.416602,
-15.780723,28.328100,2.477657,
-15.933779,28.456804,2.423146,
-16.090087,28.581352,2.463437,
-16.244108,28.708911,2.438260,
-16.394252,28.840991,2.462221,
-16.551878,28.963936,2.448805,
-16.702261,29.095770,2.408108,
-16.858519,29.220208,2.479933,
-17.012704,29.347552,2.439375,
-17.170054,29.470904,2.485837,
-17.323687,29.598882,2.425248,
-17.473757,29.731076,2.432375,
-17.631778,29.853564,2.464691,
-17.783426,29.983917,2.409405,
-17.937854,30.110667,2.501186,
-18.093050,30.236729,2.434994,
-18.244410,30.367407,2.472005,
-18.401978,30.490549,2.460728,
-18.554592,30.619772,2.416414,
-18.711871,30.743127,2.448177,
-18.863410,30.873626,2.409405,
-19.016577,31.002014,2.512548,
-19.172679,31.126933,2.439213,
-19.322630,31.259249,2.411612,
-19.479900,31.382620,2.452935,
-19.631855,31.512627,2.407898,
-19.784542,31.641571,2.548752,
-19.940251,31.766826,2.415382,
-20.089811,31.899611,2.415735,
-20.246697,32.023506,2.453160,
-20.399250,32.152820,2.407513,
-20.550566,32.283465,2.553520,
-20.706734,32.408110,2.433646,
-20.855834,32.541406,2.404204,
-21.006027,32.673257,2.511100,
-21.162915,32.797175,2.438458,
-21.313281,32.929019,2.416385,
-21.470125,33.052880,2.448197,
-21.622197,33.182763,2.409405,
-21.774009,33.312825,2.512548,
-21.931056,33.436539,2.439213,
-22.081385,33.568421,2.411583,
-22.237927,33.692659,2.451660,
-22.390393,33.822077,2.409405,
-22.542180,33.952168,2.523893,
-22.700261,34.074549,2.449309,
-22.853591,34.202937,2.459903,
-23.011725,34.325246,2.437427,
-23.165195,34.453467,2.481488,
-23.324061,34.574873,2.448664,
-23.477601,34.703022,2.470147,
-23.637279,34.823337,2.486516,
-23.798346,34.941880,2.512578,
-23.956891,35.063781,2.481130,
-24.117380,35.183072,2.493135,
-24.278172,35.301966,2.535544,
-24.438578,35.421336,2.535635,
-24.602627,35.535736,2.523921,
-24.765550,35.651730,2.508312,
-24.926596,35.770198,2.556077,
-25.093282,35.880724,2.556077,
-25.259808,35.991490,2.552505,
-25.426163,36.102511,2.550115,
-25.592166,36.214060,2.551189,
-25.761792,36.319924,2.597179,
-25.931435,36.425769,2.614073,
-26.104499,36.526011,2.619972,
-26.275481,36.629576,2.635565,
-26.449418,36.728257,2.600402,
-26.620430,36.831951,2.607706,
-26.798335,36.923174,2.688463,
-26.976817,37.013376,2.658879,
-27.155254,37.103648,2.692273,
-27.334071,37.193138,2.659200,
-27.512747,37.282923,2.699017,
-27.692268,37.371013,2.699804,
-27.871175,37.460354,2.664816,
-28.050115,37.549624,2.700102,
-28.232892,37.630529,2.767875,
-28.418072,37.706032,2.723000,
-28.602592,37.782817,2.824930,
-28.787642,37.858669,2.750877,
-28.973864,37.931508,2.740049,
-29.160990,38.001947,2.823348,
-29.350171,38.066814,2.802736,
-29.538245,38.134839,2.794476,
-29.727285,38.200091,2.825032,
-29.917111,38.263066,2.821600,
-30.107872,38.323137,2.842539,
-30.298881,38.382427,2.835024,
-30.490725,38.438794,2.872619,
-30.682441,38.495606,2.845085,
-30.874432,38.551592,2.882388,
-31.067503,38.603646,2.821994,
-31.259936,38.657895,2.902889,
-31.454091,38.705891,2.889003,
-31.648097,38.754474,2.900665,
-31.841842,38.804078,2.895304,
-32.035575,38.853724,2.929637,
-32.231264,38.895007,2.928525,
-32.425299,38.943366,2.898652,
-32.621004,38.984073,2.968391,
-32.817055,39.023268,2.908633,
-33.013501,39.060702,2.966630,
-33.209231,39.101621,2.964380,
-33.405939,39.137692,2.939608,
-33.601164,39.180900,2.963489,
-33.797024,39.220798,3.001606,
-33.995182,39.247750,2.990325,
-34.191594,39.285152,2.986030,
-34.389544,39.313584,2.989072,
-34.585701,39.352166,2.977202,
-34.784586,39.372859,3.007248,
-34.981706,39.406150,2.924614,
